Alpha - Location 1,Alpha - Location 2,Alpha - Location 3,Alpha - Location 4,Beta - Location 1,Beta - Location 2,Beta - Location 3,Beta - Location 4,Delta - Location 1,Delta - Location 2,Delta - Location 3,Delta - Location 4,Gamma - Location 1,Gamma - Location 2,Gamma - Location 3,Gamma - Location 4,Theta - Location 1,Theta - Location 2,Theta - Location 3,Theta - Location 4
0.35259014,0.24414392,0.17017022,0.18934608,0.09362219,0.22516869,0.22741434,0.10090474,0.24051179,0.13579729,0.2505737,0.36048323,0.05414313,0.22675626,0.1229783,0.05308784,0.25913274,0.16813384,0.22886345,0.2961781
0.34255567,0.26982692,0.16878459,0.1850863,0.09002527,0.2214972,0.22023009,0.096962765,0.25156733,0.11716988,0.24848379,0.36650237,0.05562805,0.22870962,0.12007796,0.05683191,0.26022366,0.16279638,0.24242356,0.29461667
0.3378866,0.28594267,0.16820875,0.1839916,0.087911434,0.21747789,0.21368988,0.09441833,0.2567828,0.10918404,0.2499582,0.36722782,0.0560561,0.22841422,0.115713164,0.060121603,0.26136306,0.15898116,0.25243,0.29424065
0.33576337,0.29616266,0.16837282,0.18394212,0.086217724,0.21034087,0.20915055,0.09304575,0.25889367,0.110725574,0.25325933,0.3657745,0.055701442,0.2238524,0.10984624,0.06255859,0.26342377,0.15891849,0.25937104,0.29467905
0.33461675,0.3021785,0.17221014,0.18406123,0.08416183,0.2007957,0.20695423,0.092179276,0.25944602,0.11859236,0.25541374,0.3642032,0.055104446,0.21565516,0.10311765,0.06435936,0.26667094,0.16277826,0.26230422,0.29519692
0.33377436,0.30333352,0.18034175,0.18398367,0.08157985,0.19243103,0.20594528,0.091380976,0.25942132,0.1283512,0.2544704,0.3637971,0.05474668,0.20690997,0.096683115,0.06566678,0.2704778,0.16897428,0.26255944,0.2951715
0.33332378,0.30416635,0.18477641,0.18349542,0.07869642,0.18684883,0.20409675,0.090476975,0.258841,0.13745104,0.25546685,0.36530486,0.05493319,0.1985098,0.09120715,0.06654319,0.2742056,0.17302398,0.26445284,0.29417956
0.3329727,0.30182883,0.18632549,0.18252845,0.07601894,0.18356927,0.19368175,0.09006681,0.25874186,0.15280207,0.2721874,0.3686228,0.05574808,0.19153959,0.08410082,0.06696873,0.2765184,0.17026025,0.2637045,0.29181316
0.33234963,0.27623448,0.17345059,0.18107669,0.0740015,0.17767799,0.16796924,0.09102609,0.26152802,0.19973172,0.32760528,0.37266925,0.057084274,0.18354425,0.07156775,0.06703553,0.27503657,0.16281158,0.25940713,0.28819242
0.32983956,0.22314458,0.14016299,0.17980921,0.07234317,0.15849003,0.13126591,0.09383614,0.27401894,0.30198255,0.42658538,0.37565628,0.05836292,0.1648255,0.05440248,0.06702656,0.2654354,0.15155731,0.24758324,0.28367183
0.32695058,0.17106313,0.11066524,0.18949157,0.0702806,0.12691402,0.09709004,0.09716454,0.30186155,0.42755884,0.5253948,0.37235075,0.058609232,0.13439143,0.03862449,0.06645874,0.24229804,0.1400726,0.22822541,0.27453437
0.3242176,0.13213854,0.08807725,0.19504,0.067612275,0.098205104,0.07414594,0.10206913,0.34186807,0.53084725,0.59928477,0.36979368,0.057818238,0.10491682,0.028192941,0.06656147,0.20848382,0.13389231,0.21029912,0.26653573
0.2976523,0.102166094,0.07998343,0.18843073,0.06793337,0.07945354,0.05994641,0.10868652,0.39654577,0.60054576,0.6429147,0.3726394,0.05925405,0.083304554,0.021936124,0.067652605,0.17861448,0.13453005,0.19521934,0.26259077
0.23243736,0.08978929,0.08055905,0.16963527,0.07373537,0.06821811,0.051290106,0.11592551,0.4674298,0.6342164,0.6653969,0.38209125,0.065436125,0.06805808,0.018322151,0.06913724,0.16096136,0.13971809,0.18443178,0.26321074
0.1731595,0.08655783,0.07964267,0.15201457,0.0809202,0.06225265,0.046067998,0.12071291,0.52402925,0.64515966,0.678501,0.39277947,0.07322066,0.057824604,0.016385434,0.06932462,0.14867039,0.14820522,0.17940287,0.26516843
0.14512946,0.08686177,0.076861605,0.15347019,0.0857511,0.05931578,0.042633288,0.120026514,0.5503846,0.6450989,0.6863064,0.39596787,0.07952717,0.051050127,0.015509469,0.06681422,0.13920769,0.15767342,0.17868924,0.2637212
0.13863614,0.08640159,0.0755372,0.15540616,0.087740004,0.058016498,0.03994738,0.11751933,0.5582663,0.644101,0.68985695,0.40002453,0.08356236,0.047009133,0.015369317,0.06392056,0.13179523,0.16447176,0.17928916,0.26312944
0.13324961,0.086843245,0.0762153,0.15471342,0.08921069,0.05768828,0.03784641,0.11497631,0.56472296,0.6435212,0.6907478,0.40587732,0.086780176,0.045289468,0.01575008,0.061638888,0.12603655,0.16665782,0.17944044,0.26279408
0.12788884,0.085557625,0.076314114,0.15059848,0.091806605,0.05844091,0.036261305,0.11228945,0.57013196,0.64374244,0.69129974,0.41654027,0.08985921,0.045781344,0.016313126,0.059924774,0.12031339,0.16647765,0.17981173,0.26064703
0.12606819,0.08591742,0.076413564,0.1419093,0.09641028,0.05925118,0.03488635,0.10878188,0.5701202,0.642569,0.69259053,0.43687803,0.09285505,0.047465824,0.016493516,0.05784127,0.11454629,0.16479659,0.17961603,0.25458953
0.13879825,0.08554757,0.08353707,0.13491954,0.10102986,0.058960058,0.033148915,0.10272441,0.5560726,0.64455134,0.69118905,0.46633622,0.09358883,0.048900805,0.015737318,0.053433854,0.11051047,0.1620402,0.17638767,0.24258597
0.16957417,0.08319092,0.09633702,0.17014708,0.102909744,0.056734007,0.031035768,0.091017686,0.5277707,0.6521007,0.6878127,0.47630134,0.09033485,0.04876383,0.014222686,0.044646364,0.10941057,0.15921058,0.17059182,0.21788754
0.18069,0.07985839,0.09851717,0.20165926,0.10486864,0.0530365,0.029385032,0.08145988,0.5111684,0.66315305,0.6932127,0.48105684,0.087369286,0.046952862,0.012754011,0.036545858,0.11590364,0.1569992,0.16613112,0.19927815
0.17558673,0.07020533,0.094935775,0.19848046,0.10661475,0.049814384,0.028295852,0.07749913,0.5058292,0.67774016,0.7021763,0.4980053,0.085671246,0.04496068,0.011824043,0.031682175,0.12629808,0.15727946,0.16276807,0.19433293
0.1690888,0.067261726,0.09505451,0.1824557,0.10786907,0.048027486,0.027735116,0.07645833,0.5016368,0.6826207,0.70641905,0.5172771,0.085512795,0.043811377,0.011716342,0.029104577,0.13589253,0.15827873,0.15907498,0.19470426
0.17218763,0.06804536,0.10091289,0.17802006,0.10939124,0.048896622,0.028000362,0.07613213,0.48825505,0.67770636,0.7033398,0.52538836,0.0868123,0.044932894,0.012648009,0.027743988,0.14335378,0.16041876,0.15509892,0.19271545
0.1744984,0.07197249,0.11280291,0.17598741,0.1124817,0.05259634,0.02936094,0.075417586,0.47668728,0.66181475,0.69065875,0.5354625,0.090569034,0.048969653,0.014699217,0.027881725,0.14576359,0.16464679,0.15247816,0.18525077
0.1797165,0.07726659,0.12744941,0.17442523,0.117162004,0.05736715,0.03096909,0.07574633,0.45740607,0.64127904,0.67464525,0.5442767,0.09527512,0.054947075,0.017308837,0.028117105,0.1504403,0.16914012,0.14962742,0.17743465
0.18538512,0.07909181,0.1328405,0.17153661,0.122572996,0.059398096,0.030813944,0.07700464,0.43598118,0.6274121,0.67008674,0.55111694,0.09890218,0.058922507,0.018726958,0.028088039,0.15715852,0.1751755,0.14753185,0.17225377
0.18909395,0.07138651,0.11712014,0.16594234,0.12772429,0.05418947,0.026780996,0.07865173,0.41827455,0.6371702,0.6937501,0.55690867,0.09968922,0.055593956,0.017027678,0.027442846,0.16521798,0.18165985,0.14532113,0.17105444
0.19004273,0.05724361,0.09020651,0.1574717,0.13237944,0.04375304,0.020878261,0.08008234,0.40576693,0.6680958,0.7335849,0.56361425,0.09770153,0.046239056,0.013432052,0.026141262,0.17410938,0.18466847,0.1418983,0.17269044
0.18882696,0.043898523,0.06805525,0.1469022,0.13681898,0.033965245,0.016139142,0.08097649,0.3952526,0.7004473,0.7673701,0.5720867,0.09460102,0.036936812,0.010255142,0.024490716,0.18450049,0.18475208,0.13818036,0.17554389
0.18539952,0.034972638,0.0552413,0.13505168,0.14067866,0.027389856,0.013213798,0.081321575,0.38533494,0.7234996,0.7889901,0.58235496,0.09169471,0.031082097,0.008179503,0.02278639,0.19689216,0.18305582,0.1343753,0.17848536
0.17923717,0.029848117,0.048103318,0.12297767,0.14247802,0.023884485,0.011766181,0.081334025,0.37786758,0.7362768,0.8021155,0.5927665,0.0887709,0.028884942,0.0070412164,0.021037955,0.21164632,0.18110563,0.1309738,0.18188384
0.1702638,0.027555946,0.045120623,0.112029046,0.14020394,0.022667674,0.011307855,0.08130708,0.37699172,0.74116176,0.8083582,0.60115844,0.08504879,0.029560031,0.006616344,0.019068347,0.22749175,0.17905457,0.128597,0.18643712
0.16174665,0.02768065,0.044277806,0.104288004,0.13430579,0.023111409,0.011498629,0.08163606,0.3813327,0.73931414,0.80972093,0.60487765,0.08096995,0.031891588,0.0068222,0.01691124,0.2416449,0.17800222,0.12768045,0.19228704
0.15799296,0.028587343,0.044766106,0.101852246,0.12674776,0.024706671,0.012113965,0.08261626,0.3834391,0.7353874,0.8077559,0.6005782,0.07787388,0.034457818,0.007598244,0.014872787,0.25394633,0.1768608,0.12776579,0.20008048
0.15799296,0.031288497,0.043396227,0.101852246,0.12674776,0.026856462,0.013056481,0.08261626,0.3834391,0.7317145,0.80615604,0.6005782,0.07787388,0.0359178,0.008842929,0.014872787,0.25394633,0.17422275,0.12854834,0.20008048
0.15799296,0.032895517,0.037779078,0.101852246,0.12674776,0.029054627,0.014360712,0.08261626,0.3834391,0.7319839,0.808083,0.6005782,0.07787388,0.03597613,0.010276512,0.014872787,0.25394633,0.17008983,0.12950072,0.20008048
0.15799296,0.032377943,0.03000942,0.101852246,0.12674776,0.030932095,0.01604859,0.08261626,0.3834391,0.73632777,0.8122842,0.6005782,0.07787388,0.035077795,0.011593936,0.014872787,0.25394633,0.16528437,0.13006386,0.20008048
0.15799296,0.034444198,0.026098091,0.101852246,0.12674776,0.032171972,0.018125044,0.08261626,0.3834391,0.7391028,0.8133632,0.6005782,0.07787388,0.033800226,0.012539059,0.014872787,0.25394633,0.16048083,0.1298746,0.20008048
0.15799296,0.03411096,0.027926268,0.101852246,0.12674776,0.03303924,0.020507324,0.08261626,0.3834391,0.7431474,0.81015587,0.6005782,0.07787388,0.03277845,0.013107937,0.014872787,0.25394633,0.156924,0.12830262,0.20008048
0.15799296,0.03395736,0.029401796,0.101852246,0.12674776,0.033901684,0.023467485,0.08261626,0.3834391,0.74558455,0.8063649,0.6005782,0.07787388,0.03219383,0.0136836,0.014872787,0.25394633,0.15436256,0.12708223,0.20008048
0.067056954,0.03458182,0.030182317,0.092167445,0.04921987,0.035225075,0.027171522,0.060394738,0.67950416,0.74694496,0.80242085,0.6081343,0.044490322,0.03232243,0.014708477,0.043088976,0.15972872,0.1509257,0.1255168,0.19621453
0.070872985,0.036615737,0.03259341,0.10004384,0.051763814,0.0379201,0.032298155,0.06604342,0.6794595,0.74660087,0.79552126,0.61064786,0.043746885,0.033755343,0.016769765,0.042400487,0.15415682,0.14510794,0.12281738,0.18086438
0.076234974,0.04107318,0.038211923,0.10983317,0.05678376,0.043203756,0.04044585,0.073512666,0.66619915,0.74191064,0.7816881,0.60063887,0.044900768,0.037396796,0.020808995,0.042901337,0.15588135,0.13641563,0.118845135,0.17311394
0.08268684,0.049199235,0.04983303,0.122867115,0.063147984,0.05280477,0.0547609,0.080249116,0.6444669,0.72863483,0.75340474,0.5810616,0.046584755,0.044252116,0.028541308,0.043295126,0.16311352,0.12510903,0.11346005,0.17252705
0.09663339,0.06164769,0.07251134,0.14022937,0.06960493,0.06779647,0.08081839,0.08283553,0.6103306,0.7032575,0.6958431,0.5507382,0.046720836,0.054209698,0.04312364,0.041961253,0.17671023,0.113088645,0.10770354,0.18423566
0.13130847,0.07621604,0.11269892,0.16411744,0.07379868,0.0856549,0.12528294,0.079000734,0.55944604,0.66992825,0.589019,0.5119123,0.04356129,0.06385257,0.068716936,0.037939884,0.19188552,0.104348235,0.10428222,0.20702967
0.17755964,0.08694401,0.16073532,0.19232108,0.07482698,0.09868793,0.18390566,0.07054005,0.50587076,0.64313513,0.44452894,0.47430623,0.038115673,0.06674229,0.103720896,0.03235075,0.20362693,0.104490615,0.1071092,0.2304819
0.20119824,0.091370985,0.19841585,0.20145327,0.075235814,0.10246657,0.22390872,0.06317459,0.476066,0.6342369,0.33586985,0.45682043,0.03348259,0.061877243,0.12921773,0.027888814,0.21401736,0.110048324,0.112587854,0.2506629
0.19846575,0.09440087,0.21331309,0.18869318,0.07629946,0.10202672,0.23018144,0.059063982,0.47054318,0.63164175,0.30917275,0.45874077,0.030679025,0.055399887,0.13451317,0.025309263,0.22401258,0.116530776,0.11281953,0.26819283
0.19523318,0.099605806,0.21165432,0.18360749,0.076659925,0.1039145,0.22503231,0.056566935,0.47038168,0.6200904,0.3218832,0.46000603,0.028991524,0.052704778,0.13127373,0.023703016,0.22873369,0.123684466,0.11015643,0.27611655
0.19780634,0.11428857,0.207581,0.18568474,0.07665978,0.11061917,0.2173502,0.05580869,0.4685794,0.5857876,0.34127548,0.45787448,0.028188635,0.05554092,0.12572937,0.022867596,0.22876583,0.13376373,0.108063936,0.2777645
0.20432118,0.13699652,0.20520101,0.19233021,0.076926045,0.12270195,0.20930694,0.05650049,0.46431583,0.52534455,0.35606328,0.4524723,0.02806442,0.0643452,0.12030319,0.022499813,0.22637251,0.15061177,0.10912559,0.2761972
0.21129422,0.15619873,0.20779917,0.19805941,0.07882819,0.13908084,0.19868492,0.05792576,0.4575423,0.45116496,0.36733958,0.44749284,0.026635638,0.07779015,0.11518657,0.020818062,0.22569965,0.17576532,0.11098978,0.27570394
0.22315979,0.15920787,0.21083543,0.20745452,0.083132066,0.15596679,0.18468694,0.060776576,0.4392904,0.3879998,0.3809255,0.43443352,0.026182948,0.09242324,0.11086566,0.019538874,0.22823478,0.2044023,0.11268644,0.2777965
0.2396327,0.15971547,0.2135888,0.22010322,0.08929805,0.16539767,0.16679408,0.06374782,0.41108793,0.34898683,0.39869633,0.4149215,0.026767464,0.10172755,0.10659334,0.018566638,0.23321387,0.22417249,0.11432744,0.2826608
0.2573519,0.15928932,0.22064751,0.2334183,0.09567419,0.16811618,0.14566936,0.065489344,0.379583,0.33490187,0.41711456,0.3934961,0.027961124,0.10482139,0.10090607,0.017718172,0.23942979,0.23287125,0.11566251,0.2898781
0.2715588,0.15987109,0.22480793,0.2425322,0.10021292,0.16877201,0.12626278,0.06527571,0.35404176,0.32969117,0.43640247,0.3771604,0.029154724,0.1045693,0.09389464,0.016880555,0.24503179,0.23709643,0.11863217,0.29815114
0.27830252,0.1523641,0.22000806,0.24718541,0.10147841,0.17046964,0.11271961,0.06335154,0.34260112,0.33022645,0.45568916,0.37006655,0.029963592,0.10301719,0.0861115,0.015976384,0.24765436,0.2439226,0.12547168,0.3034201
0.27421153,0.15623899,0.21994467,0.24320807,0.09870076,0.16833666,0.10429987,0.060820553,0.3463328,0.3316781,0.4620577,0.37409872,0.030045716,0.0985009,0.076707035,0.015000193,0.2507092,0.24524535,0.13699071,0.3068725
0.26167074,0.16076925,0.22138385,0.2508245,0.09166393,0.16571982,0.10130487,0.056970593,0.3609439,0.3381847,0.45398563,0.37724328,0.029243117,0.094007336,0.06818048,0.013542716,0.2564783,0.24131888,0.15514517,0.30141887
0.25912854,0.16193077,0.22222386,0.26523596,0.080702364,0.16595384,0.103069186,0.053136107,0.37367,0.3480674,0.43250084,0.3783711,0.027446654,0.09181774,0.06302833,0.011981272,0.25905243,0.23223025,0.17917778,0.2912756
0.24287339,0.16044526,0.21446523,0.255921,0.07214596,0.17147371,0.11041494,0.052184697,0.39308286,0.3552523,0.40445685,0.39042184,0.026651813,0.09287158,0.06337021,0.01119553,0.265246,0.21995717,0.20729277,0.2902769
0.22268258,0.15788366,0.19471718,0.24490777,0.06723773,0.18344836,0.12461356,0.052863505,0.41213655,0.35416672,0.37450895,0.40072387,0.02725956,0.09700629,0.07066243,0.011093539,0.2706836,0.207495,0.23549788,0.2904113
0.19584827,0.1497462,0.17339227,0.23796718,0.067114465,0.20168664,0.14414908,0.054733004,0.4308042,0.34407982,0.34238943,0.4060673,0.029616611,0.103756584,0.08501476,0.01182698,0.27661645,0.20073076,0.25505447,0.28940552
0.1913373,0.15546809,0.17529319,0.24548848,0.06895904,0.21763837,0.16113985,0.056316543,0.4334605,0.32109815,0.30592647,0.4017945,0.03223141,0.109570414,0.10228868,0.013210444,0.27401173,0.19622499,0.2553518,0.28319004
0.1942004,0.15997718,0.17979407,0.25221467,0.071979314,0.23051241,0.17440487,0.057303198,0.42971513,0.298845,0.2796156,0.39845127,0.034594033,0.11588461,0.12015895,0.015105231,0.26951116,0.19478081,0.2460265,0.27692562
0.19542372,0.15941751,0.174989,0.25439566,0.07468475,0.23984054,0.18483736,0.05719069,0.42640355,0.28255755,0.26598638,0.39906847,0.036314175,0.12359821,0.13696261,0.017143212,0.2671738,0.1945862,0.23722464,0.27220196
0.19536205,0.15834607,0.17004038,0.25373718,0.07607271,0.24423261,0.19195582,0.05629647,0.42435455,0.27298504,0.25592595,0.40198222,0.03734833,0.13174467,0.15071957,0.019112473,0.26686236,0.19269161,0.23135826,0.26887164
0.19498421,0.15738377,0.16711739,0.25251907,0.076366566,0.24371274,0.19713756,0.055267517,0.42300123,0.2691432,0.2451411,0.4048706,0.037885576,0.13912685,0.16167407,0.020928496,0.26776242,0.19063346,0.22892988,0.26641434
0.1945215,0.15688036,0.16589217,0.25139523,0.07605481,0.23943405,0.2009646,0.05494775,0.42178574,0.26981243,0.23327988,0.40623653,0.038035177,0.1451689,0.17069338,0.022528179,0.26960278,0.18870424,0.22916996,0.2648923
0.19409098,0.15681416,0.16763954,0.25060806,0.07554053,0.23298939,0.20339158,0.055483986,0.42080882,0.27355358,0.22210252,0.4061469,0.0377806,0.15031958,0.17770027,0.023815079,0.27177906,0.1863233,0.22916609,0.263946
0.19396928,0.15767016,0.16763617,0.25056574,0.07517148,0.22588521,0.20586134,0.05658704,0.42022347,0.2795678,0.21401137,0.4046723,0.037135392,0.15557033,0.18415186,0.024787812,0.27350038,0.18130651,0.22833924,0.2633871
0.19503754,0.15844312,0.16792266,0.25236833,0.075433046,0.220397,0.20819856,0.057630215,0.4196959,0.2858601,0.20914151,0.40183002,0.03624745,0.16232221,0.19026375,0.025650224,0.27358603,0.1729776,0.2244735,0.2625212
0.1998903,0.16255799,0.16880952,0.2594136,0.077132516,0.21771497,0.21093194,0.05838522,0.41787076,0.2870017,0.20825319,0.39621553,0.035657983,0.17056435,0.19680451,0.026917981,0.26944843,0.162161,0.21520084,0.25906765
0.2122503,0.16724662,0.17047065,0.27659038,0.08142055,0.21984412,0.21406429,0.059218604,0.4129509,0.2791496,0.2132533,0.3860293,0.03607637,0.18089421,0.20388117,0.029212328,0.25730187,0.15286545,0.19833058,0.24894938
0.2346834,0.16184579,0.17274572,0.301847,0.089471005,0.22888881,0.21727385,0.061386276,0.4029832,0.2647439,0.22628485,0.37362236,0.038145326,0.19474678,0.21000698,0.03335698,0.2347171,0.14977472,0.1736886,0.22978738
0.23232259,0.16154163,0.17489262,0.29778257,0.106564835,0.23741682,0.22004247,0.06941352,0.40556517,0.24345471,0.2462923,0.38115448,0.04408875,0.20690696,0.21341546,0.041831758,0.21145867,0.15067989,0.14535715,0.20981766
0.19337091,0.16391705,0.17767523,0.24318168,0.13492724,0.24149638,0.2215159,0.08670786,0.42590654,0.22466443,0.26818004,0.42310596,0.054759786,0.21626283,0.21279207,0.05672204,0.19103552,0.15365928,0.11983673,0.19028248
0.14141993,0.17000858,0.18402462,0.14049602,0.16555259,0.2386372,0.22090118,0.111830615,0.4518548,0.21298492,0.2845677,0.50027114,0.06670049,0.22335732,0.20752126,0.07622268,0.17447221,0.15501198,0.10298523,0.17117953
0.12060493,0.17751807,0.19403835,0.09044498,0.17898703,0.23095846,0.21873881,0.12617648,0.4620948,0.2067349,0.292983,0.5475013,0.07231024,0.23082109,0.19793995,0.08589051,0.16600299,0.15396748,0.09629991,0.14998668
0.113275506,0.18587397,0.19788623,0.08013213,0.17738353,0.22149238,0.21676177,0.12976286,0.46776304,0.20226417,0.29941404,0.56203985,0.07216305,0.23904279,0.18615158,0.08562978,0.1694149,0.1513267,0.09978638,0.14243537
0.10641556,0.19065598,0.1894469,0.0799722,0.17233634,0.21326314,0.21194153,0.13187183,0.47492778,0.19911845,0.3125499,0.5619089,0.06998826,0.24661772,0.17050084,0.08230696,0.17633204,0.15034473,0.11556084,0.14394009
0.09280851,0.18751627,0.17464957,0.0936666,0.17064092,0.20759381,0.19459163,0.13545592,0.4870616,0.1979967,0.34094828,0.5472103,0.06764051,0.25061026,0.14584231,0.07778478,0.1818485,0.15628295,0.14396821,0.14588244
0.10227747,0.20350651,0.16295683,0.101652816,0.16454771,0.19691062,0.16378705,0.14197111,0.4900533,0.19410437,0.38168898,0.5348109,0.062640525,0.2400679,0.114451796,0.07373083,0.180481,0.1654106,0.17711535,0.14783433
0.12900905,0.22818896,0.14266045,0.12260564,0.15385428,0.18408667,0.13487914,0.14393188,0.48798376,0.19009106,0.4277233,0.51797813,0.055358775,0.22059676,0.08749351,0.06754206,0.1737941,0.17703655,0.20724359,0.14794227
0.15828773,0.23654906,0.12741756,0.16724342,0.1412038,0.17625584,0.11421699,0.13296959,0.48422703,0.19021066,0.4628084,0.4937491,0.047022127,0.20390293,0.068166345,0.05736418,0.16925931,0.19308151,0.22739068,0.1486737
